Energy (eV),e1,e2
5.867289,1.535451,5.507817
5.82344,1.538754,5.602505
5.780241,1.519422,5.665781
5.737676,1.49936,5.758031
5.695733,1.503903,5.849849
5.654397,1.498765,5.957762
5.613657,1.511056,6.096935
5.573499,1.581245,6.213412
5.533911,1.646255,6.341211
5.49488,1.716635,6.45535
5.456395,1.815871,6.512362
5.418444,1.907168,6.563531
5.381018,1.995356,6.622874
5.344104,2.049387,6.673054
5.307692,2.070931,6.743639
5.271772,2.110269,6.80978
5.236335,2.123849,6.910075
5.201371,2.148352,7.032769
5.166869,2.210664,7.171984
5.132822,2.277214,7.34201
5.09922,2.377972,7.510252
5.066054,2.519471,7.674624
5.033317,2.632578,7.840281
5.000999,2.77089,8.018528
4.969093,2.935674,8.217191
4.937592,3.123967,8.409103
4.906486,3.369363,8.599931
4.87577,3.67691,8.762738
4.845435,3.996714,8.901776
4.815475,4.39114,8.946116
4.785883,4.815017,8.971436
4.756652,5.195199,8.889688
4.727775,5.588861,8.765491
4.699246,5.868395,8.589902
4.67106,6.183717,8.384311
4.643209,6.379769,8.167822
4.615688,6.544951,7.94524
4.588491,6.67155,7.767694
4.561612,6.736339,7.554214
4.535046,6.764109,7.383796
4.508787,6.846404,7.250655
4.48283,6.943528,7.179226
4.45717,7.045818,7.152422
4.431802,7.169642,7.060524
4.406721,7.3303,6.96278
4.381921,7.467265,6.811138
4.357399,7.662394,6.644484
4.33315,7.773607,6.438049
4.309169,7.834884,6.194534
4.285452,7.873312,6.003289
4.261994,7.8734,5.815507
4.238791,7.800695,5.687176
4.215839,7.790857,5.60895
4.193135,7.823222,5.594858
4.170673,7.901325,5.560206
4.148451,8.033872,5.513101
4.126463,8.181169,5.340807
4.104708,8.273026,5.180523
4.083181,8.356893,4.977328
4.061878,8.404601,4.761289
4.040796,8.351319,4.538844
4.019931,8.361452,4.368048
3.999282,8.313883,4.197204
3.978842,8.228266,4.053482
3.958611,8.163115,3.95069
3.938584,8.07089,3.823762
3.918759,8.036186,3.720266
3.899132,7.96513,3.605199
3.8797,7.893753,3.550027
3.860462,7.862036,3.47935
3.841413,7.787072,3.427078
3.822551,7.736992,3.376663
3.803873,7.68858,3.326385
3.785377,7.600817,3.247533
3.76706,7.572472,3.209557
3.748919,7.544821,3.166646
3.730952,7.521629,3.153007
3.713156,7.444127,3.119766
3.695529,7.410924,3.111226
3.678069,7.367062,3.062727
3.660773,7.344518,3.018718
3.643639,7.282822,2.988706
3.626665,7.260589,2.972067
3.609848,7.269431,2.961375
3.593186,7.234397,2.933571
3.576677,7.209466,2.903586
3.560319,7.20242,2.862772
3.54411,7.186979,2.867372
3.528048,7.125862,2.859846
3.512131,7.101571,2.830433
3.496357,7.063483,2.82198
3.480724,7.06793,2.816933
3.46523,7.051754,2.792809
3.449874,7.031339,2.783143
3.434653,7.010952,2.756823
3.419566,6.997771,2.758295
3.404611,6.965673,2.739519
3.389786,6.988765,2.710231
3.375089,6.972456,2.689855
3.36052,6.958354,2.685343
3.346076,6.931921,2.675551
3.331756,6.946366,2.672563
3.317557,6.91716,2.62336
3.303479,6.90374,2.619869
3.289521,6.901164,2.619741
3.27568,6.885458,2.616661
3.261955,6.875177,2.58792
3.248344,6.872322,2.587278
3.234847,6.877655,2.559341
3.221461,6.894217,2.562277
3.208186,6.844901,2.525603
3.19502,6.851005,2.551305
3.181961,6.837569,2.523198
3.169009,6.836641,2.515993
3.156162,6.824182,2.523026
3.143419,6.824045,2.484031
3.130779,6.825428,2.492876
3.11824,6.819572,2.474001
3.1058,6.823814,2.480148
3.09346,6.831059,2.463971
3.081218,6.818808,2.462774
3.069072,6.797316,2.429333
3.057022,6.811274,2.446552
3.045066,6.810501,2.451722
3.033204,6.791403,2.424595
3.021433,6.778633,2.413552
3.009754,6.771723,2.401547
2.998165,6.778214,2.399308
2.986665,6.77196,2.408211
2.975252,6.784931,2.395952
2.963927,6.779437,2.380241
2.952688,6.78678,2.37768
2.941534,6.790938,2.374481
2.930464,6.783331,2.359967
2.919477,6.771152,2.33909
2.908572,6.777004,2.346017
2.897749,6.795943,2.324462
2.887006,6.770968,2.319999
2.876342,6.771996,2.320698
2.865757,6.774632,2.305436
2.85525,6.767217,2.30659
2.84482,6.799347,2.294437
2.834466,6.781944,2.280781
2.824187,6.777087,2.269353
2.813982,6.778012,2.264646
2.803851,6.778722,2.256961
2.793793,6.78241,2.252561
2.783807,6.804926,2.251277
2.773893,6.768862,2.236431
2.764048,6.787263,2.221155
2.754274,6.803258,2.218755
2.744569,6.795896,2.206214
2.734932,6.811915,2.21217
2.725362,6.795424,2.197307
2.71586,6.816161,2.187541
2.706423,6.802004,2.184436
2.697052,6.807863,2.171197
2.687747,6.788743,2.162626
2.678505,6.80292,2.159978
2.669326,6.813325,2.141898
2.660211,6.808928,2.153916
2.651158,6.829897,2.146367
2.642166,6.81807,2.124341
2.633235,6.823724,2.113021
2.624365,6.832005,2.113917
2.615554,6.843795,2.112024
2.606803,6.85096,2.10271
2.598109,6.833871,2.101431
2.589475,6.840033,2.082363
2.580897,6.836682,2.080508
2.572376,6.848276,2.072737
2.563911,6.86364,2.068496
2.555503,6.860033,2.061312
2.547149,6.855109,2.053362
2.53885,6.869497,2.037295
2.530605,6.878646,2.046635
2.522414,6.88348,2.027877
2.514275,6.865082,2.027362
2.506189,6.88839,2.024499
2.498156,6.881621,2.015401
2.490174,6.892478,2.000076
2.482242,6.888176,1.999215
2.474361,6.90059,1.989435
2.466531,6.892026,1.979821
2.45875,6.896715,1.977257
2.451018,6.90836,1.973652
2.443335,6.91801,1.961857
2.4357,6.91345,1.961872
2.428112,6.923022,1.953939
2.420573,6.920931,1.936766
2.41308,6.930091,1.93793
2.405633,6.934994,1.934159
2.398232,6.944928,1.92913
2.390877,6.949749,1.919043
2.383568,6.945264,1.910155
2.376302,6.96311,1.902209
2.369082,6.96198,1.894683
2.361905,6.961036,1.887863
2.354772,6.974084,1.880405
2.347682,6.975492,1.869207
2.340634,6.976744,1.870584
2.333629,6.992391,1.854697
2.326667,7.003881,1.861015
2.319746,7.004614,1.853286
2.312865,7.002516,1.839489
2.306026,7.01064,1.833786
2.299228,7.023805,1.821004
2.292469,7.019069,1.815743
2.285751,7.018625,1.806054
2.279072,7.040412,1.79586
2.272432,7.036835,1.794676
2.265831,7.048883,1.785278
2.259268,7.055717,1.777584
2.252743,7.068157,1.77473
2.246256,7.068123,1.763995
2.239807,7.080997,1.755936
2.233395,7.082203,1.758504
2.227019,7.102643,1.746521
2.22068,7.110717,1.739165
2.214378,7.129475,1.739887
2.208111,7.127857,1.72251
2.20188,7.139186,1.710635
2.195684,7.151517,1.704999
2.189523,7.16649,1.68884
2.183396,7.173026,1.671038
2.177305,7.195764,1.654151
2.171247,7.209805,1.638921
2.165223,7.223593,1.615201
2.159232,7.238204,1.598477
2.153275,7.232814,1.5641
2.147351,7.241604,1.546414
2.14146,7.235332,1.520582
2.135601,7.23317,1.502854
2.129774,7.237097,1.483421
2.123979,7.231503,1.46811
2.118216,7.22384,1.447693
2.112484,7.220956,1.43888
2.106784,7.209869,1.426513
2.101114,7.216575,1.415925
2.095475,7.216639,1.396492
2.089866,7.213017,1.38903
2.084288,7.206308,1.376933
2.078739,7.213396,1.367939
2.07322,7.20499,1.353652
2.067731,7.211397,1.345853
2.062271,7.209357,1.337991
2.056839,7.205217,1.325113
2.051437,7.204168,1.313103
2.046063,7.208743,1.306798
2.040717,7.209108,1.295756
2.0354,7.2063,1.281611
2.03011,7.21093,1.268101
2.024848,7.21654,1.254221
2.019613,7.206956,1.247247
2.014406,7.202794,1.236391
2.009225,7.212513,1.225545
2.004072,7.212554,1.213664
1.998945,7.212315,1.201009
1.993844,7.213931,1.194858
1.98877,7.218271,1.179971
1.983721,7.215908,1.166393
1.978698,7.209188,1.157717
1.973701,7.201287,1.147578
1.96873,7.207819,1.126965
1.963783,7.2134,1.11975
1.958862,7.206366,1.105741
1.953965,7.200548,1.094381
1.949093,7.189507,1.068546
1.944246,7.189716,1.063441
1.939422,7.184872,1.051599
1.934623,7.187962,1.041116
1.929848,7.158916,1.01828
1.925097,7.159065,1.015453
1.920369,7.141932,1.006325
1.915664,7.118514,0.999005
1.910983,7.10533,0.996704
1.906325,7.078756,0.995849
1.901689,7.064697,1.011388
1.897076,7.070131,1.023613
1.892486,7.060216,1.037531
1.887918,7.06035,1.041927
1.883373,7.051238,1.056882
1.87885,7.071682,1.059361
1.874348,7.079242,1.073162
1.869868,7.082009,1.079751
1.86541,7.09654,1.085921
1.860973,7.111557,1.08663
1.856558,7.112119,1.098497
1.852163,7.129498,1.101572
1.84779,7.135375,1.104448
1.843437,7.145595,1.108122
1.839105,7.168855,1.104011
1.834794,7.176559,1.110003
1.830503,7.195003,1.113152
1.826232,7.205194,1.110734
1.821982,7.217019,1.112532
1.817751,7.24746,1.112655
1.81354,7.264869,1.112718
1.809349,7.286259,1.109707
1.805178,7.301319,1.116241
1.801026,7.320145,1.114487
1.796893,7.351962,1.113517
1.792779,7.382903,1.112209
1.788684,7.417897,1.109346
1.784608,7.453336,1.100861
1.780551,7.503026,1.093003
1.776513,7.547949,1.087205
1.772493,7.586294,1.071721
1.768492,7.638917,1.053518
1.764508,7.710424,1.01741
1.760543,7.771156,0.975961
1.756596,7.833108,0.920673
1.752667,7.888828,0.844698
1.748755,7.918484,0.752739
1.744861,7.944353,0.64368
1.740985,7.94571,0.560476
1.737126,7.936127,0.467387
1.733284,7.905789,0.380964
1.72946,7.868256,0.30601
1.725653,7.826594,0.237906
1.721862,7.774597,0.183723
1.718089,7.726484,0.139127
1.714332,7.678392,0.102899
1.710592,7.631251,0.073526
1.706868,7.587461,0.050041
1.703161,7.549103,0.031448
1.699469,7.512081,0.016282
1.695795,7.476846,0.003373
1.692136,7.443798,0
1.688493,7.413241,0
1.684866,7.386243,0
1.681255,7.361005,0
1.67766,7.3368,0
1.67408,7.312424,0
1.670516,7.291676,0
1.666966,7.270949,0
1.663433,7.251438,0
1.659914,7.232986,0
1.656411,7.214118,0
1.652922,7.197011,0
1.649449,7.1813,0
1.64599,7.165618,0
1.642546,7.148921,0
1.639116,7.133583,0
1.635701,7.121454,0
1.6323,7.108032,0
1.628914,7.091492,0
1.625542,7.078324,0
1.622184,7.068377,0
1.618841,7.053971,0
1.615511,7.038455,0
1.612195,7.022308,0
1.608893,7.010727,0
1.605604,6.9978,0
1.60233,6.982265,0
1.599069,6.967892,0
1.595821,6.955575,0
1.592587,6.943642,0
1.589366,6.925278,0
1.586158,6.912051,0
1.582963,6.899731,0
1.579782,6.887022,0
1.576613,6.872117,0
1.573457,6.860693,0
1.570315,6.847733,0
1.567184,6.83378,0
1.564067,6.821266,0
1.560962,6.809174,0
1.55787,6.798644,0
1.55479,6.783817,0
1.551723,6.771317,0
1.548668,6.758353,0
1.545625,6.747463,0
1.542594,6.739044,0
1.539575,6.725001,0
1.536569,6.711318,0
1.533574,6.70019,0
1.530591,6.689806,0
1.52762,6.67741,0
1.524661,6.666666,0
1.521713,6.657157,0
1.518777,6.644016,0
1.515853,6.634379,0
1.51294,6.624053,0
1.510038,6.609938,0
1.507148,6.599677,0
1.504269,6.590516,0
1.501401,6.576126,0
1.498544,6.568164,0
1.495698,6.558635,0
1.492864,6.546945,0
1.49004,6.531239,0
1.487227,6.525583,0
1.484425,6.515156,0
1.481634,6.505792,0
1.478853,6.492772,0
1.476084,6.48196,0
1.473324,6.472783,0
1.470575,6.463193,0
1.467837,6.460367,0
1.465109,6.452878,0
1.462391,6.438176,0
1.459684,6.434155,0
1.456987,6.425201,0
1.4543,6.417593,0
1.451623,6.409066,0
1.448957,6.403914,0
1.4463,6.398828,0
1.443653,6.394643,0
1.441016,6.386788,0
1.438389,6.384176,0
1.435772,6.375124,0
1.433164,6.370732,0
1.430566,6.36602,0
1.427978,6.362965,0
1.425399,6.361864,0
1.42283,6.356872,0
1.42027,6.354862,0
1.41772,6.35199,0
1.415179,6.349035,0
1.412647,6.345441,0
1.410125,6.342228,0
1.407612,6.342336,0
1.405108,6.339543,0
1.402613,6.333238,0.002562
1.400127,6.333888,0.00403
1.39765,6.332589,0.007137
1.395182,6.331239,0.01412
1.392723,6.326387,0.01094
1.390273,6.330358,0.018728
1.387832,6.328566,0.020148
1.385399,6.325603,0.019025
1.382976,6.325304,0.024747
1.380561,6.327051,0.025872
1.378154,6.322156,0.030904
1.375756,6.321711,0.028411
1.373367,6.323103,0.028975
1.370986,6.323632,0.03267
1.368614,6.318481,0.035741
1.36625,6.31701,0.037977
1.363894,6.323335,0.033636
1.361547,6.320188,0.041196
1.359208,6.314257,0.0399
1.356877,6.312595,0.043886
1.354555,6.317005,0.043711
1.35224,6.310467,0.047155
1.349934,6.309622,0.045321
1.347636,6.309198,0.04694
1.345345,6.311858,0.047079
1.343063,6.30152,0.051913
1.340789,6.298103,0.05363
1.338523,6.303516,0.051202
1.336264,6.298139,0.054337
1.334014,6.292758,0.053571
1.331771,6.295839,0.056547
1.329535,6.297103,0.058225
1.327308,6.295767,0.059192
1.325088,6.29555,0.060122
1.322876,6.283884,0.059189
1.320672,6.288202,0.063504
1.318475,6.282326,0.064927
1.316285,6.28258,0.063766
1.314103,6.272233,0.062584
1.311928,6.267847,0.064866
1.309761,6.265615,0.063966
1.307601,6.271255,0.063851
1.305449,6.263572,0.062221
1.303304,6.2606,0.065105
1.301166,6.257538,0.063665
1.299035,6.247528,0.060136
1.296911,6.25143,0.060509
1.294795,6.249361,0.063055
1.292686,6.243192,0.060758
1.290583,6.24238,0.059741
1.288488,6.242035,0.059867
1.2864,6.233494,0.052758
1.284319,6.235313,0.061282
1.282244,6.23308,0.05714
1.280177,6.236597,0.062904
1.278116,6.23124,0.059109
1.276062,6.225594,0.054743
1.274016,6.229709,0.060078
1.271975,6.228749,0.061295
1.269942,6.227342,0.05844
1.267915,6.221484,0.058004
1.265895,6.222224,0.055301
1.263882,6.222756,0.053742
1.261875,6.220022,0.063244
1.259875,6.215951,0.057199
1.257881,6.215236,0.05435
1.255894,6.216335,0.051629
1.253913,6.212063,0.058281
1.251939,6.209631,0.058161
1.249971,6.209359,0.053262
1.248009,6.210124,0.054057
1.246054,6.211684,0.058509
1.244105,6.211508,0.056019
1.242163,6.210406,0.054168
1.240227,6.210321,0.052602
1.223788,6.202254,0.041407
1.219735,6.202143,0.04034
1.215708,6.197425,0.034919
1.211706,6.194836,0.036121
1.207729,6.190624,0.0318
1.203776,6.189308,0.032699
1.199848,6.183743,0.029287
1.195944,6.184035,0.027701
1.192064,6.178136,0.025021
1.188208,6.177588,0.024623
1.184376,6.172088,0.022183
1.180567,6.171298,0.021852
1.176781,6.167241,0.01821
1.173018,6.166267,0.018612
1.169278,6.160436,0.016359
1.165561,6.162585,0.014925
1.161866,6.155552,0.013044
1.158193,6.155982,0.012353
1.154542,6.151767,0.009599
1.150914,6.150172,0.009328
1.147306,6.1458,0.006866
1.143721,6.146231,0.006148
1.140156,6.142048,0.003616
1.136613,6.141366,0.002633
1.13309,6.137196,0.000821
1.129589,6.136802,0.000177
1.126108,6.131223,0
1.122647,6.131138,0
1.119207,6.126797,0
1.115787,6.128054,0
1.112386,6.124368,0
1.109006,6.123812,0
1.105645,6.119995,0
1.102303,6.120906,0
1.098981,6.117198,0
1.095678,6.117879,0
1.092394,6.113731,0
1.089128,6.114711,0
1.085881,6.110789,0
1.082653,6.110866,0
1.079443,6.105662,0
1.076252,6.106712,0
1.073078,6.102259,0
1.069922,6.103847,0
1.066784,6.100379,0
1.063664,6.101233,0
1.060561,6.09655,0
1.057476,6.097427,0
1.054408,6.093541,0
1.051357,6.09318,0
1.048322,6.089192,0
1.045305,6.089486,0
1.042304,6.085556,0
1.03932,6.086767,0
1.036353,6.08278,0
1.033401,6.083908,0
1.030466,6.079189,0
1.027547,6.081399,0
1.024644,6.078097,0
1.021756,6.078981,0
1.018885,6.072814,0
1.016029,6.076142,0
1.013188,6.071668,0
1.010363,6.073295,0
1.007552,6.069782,0
1.004757,6.068642,0
1.001977,6.066376,0
0.999212,6.068808,0
0.996462,6.064673,0
0.993726,6.066486,0
0.991005,6.061553,0
0.988298,6.063553,0
0.985605,6.059488,0
0.982927,6.061599,0
0.980263,6.056763,0
0.977613,6.059771,0
0.974977,6.054242,0
0.972354,6.056108,0
0.969746,6.050941,0
0.967151,6.052202,0
0.964569,6.049508,0
0.962001,6.049319,0
0.959446,6.044599,0
0.956904,6.045214,0
0.954376,6.040026,0.000497
0.95186,6.041077,0.001894
0.949358,6.037818,0.003165
0.946868,6.038306,0.005059
0.944391,6.032288,0.006194
0.941927,6.034079,0.008598
0.939475,6.02964,0.010687
0.937036,6.029555,0.011635
0.934609,6.025139,0.011219
0.932194,6.024929,0.013609
0.929792,6.021048,0.015085
0.927402,6.020538,0.016901
0.925023,6.015579,0.019259
0.922657,6.016308,0.021038
0.920303,6.012106,0.021705
0.91796,6.012471,0.024532
0.915629,6.00726,0.024936
0.91331,6.007644,0.027208
0.911002,6.002032,0.028891
0.908706,6.003471,0.029813
0.906421,5.99893,0.032219
0.904148,6.000015,0.035222
0.901886,5.996119,0.036075
0.899634,5.997246,0.037763
0.897394,5.992003,0.038195
0.895165,5.990379,0.040949
0.892947,5.985812,0.045215
0.89074,5.987867,0.047095
0.888543,5.984433,0.048274
0.886358,5.982832,0.052456
0.884183,5.980563,0.054263
0.882018,5.98209,0.055546
0.879864,5.979465,0.058847
0.87772,5.980897,0.062058
0.875587,5.978528,0.063515
0.873464,5.980707,0.06663
0.871351,5.978258,0.070626
0.869248,5.981639,0.07321
0.867156,5.978662,0.076818
0.865073,5.980537,0.080095
0.863001,5.980493,0.083225
0.860938,5.983885,0.085301
0.858885,5.983953,0.088064
0.856842,5.988314,0.091721
0.854808,5.990506,0.09374
0.852785,5.995102,0.097254
0.85077,5.99816,0.099452
0.848765,6.002902,0.101854
0.84677,6.006832,0.102827
0.844784,6.01163,0.107053
0.842808,6.016414,0.107931
0.84084,6.023384,0.109267
0.838882,6.028944,0.109746
0.836933,6.036808,0.10994
0.834993,6.04269,0.111215
0.833062,6.050782,0.109972
0.83114,6.059071,0.107307
0.829227,6.069354,0.104625
0.827323,6.07773,0.099962
0.825427,6.086399,0.096715
0.823541,6.094986,0.090005
0.821663,6.105017,0.081528
0.819793,6.114156,0.071001
0.817932,6.123508,0.06254
0.81608,6.132645,0.048032
0.814236,6.141236,0.035575
0.812401,6.147524,0.01762
0.810574,6.154016,0.001308
0.808755,6.161534,0
0.806945,6.165219,0
0.805142,6.167241,0
0.803348,6.165253,0
0.801562,6.15691,0
0.799784,6.138946,0
0.798014,6.091295,0
0.796252,6.023185,0
0.794498,5.96408,0
0.792752,5.942078,0
0.791013,5.922598,0
0.789283,5.915751,0
0.78756,5.907417,0
0.785845,5.907612,0
0.784137,5.90444,0
0.782437,5.906749,0
0.780744,5.90575,0
0.779059,5.910707,0
0.777382,5.909997,0
0.775711,5.914013,0
0.774049,5.914453,0
0.772393,5.918366,0.003923
0.770745,5.9176,0.007558
0.769104,5.919316,0.010619
0.76747,5.917237,0.012989
0.765843,5.918742,0.016135
0.764223,5.914134,0.017908
0.762611,5.916244,0.019525
0.761005,5.911997,0.020989
0.759406,5.913451,0.022446
0.757815,5.913242,0.023427
0.75623,5.915355,0.024206
0.754652,5.913983,0.024566
0.753081,5.917077,0.025583
0.751516,5.918849,0.025403
0.749959,5.919516,0.025074
0.748408,5.920723,0.025433
0.746863,5.923165,0.025503
0.745326,5.921018,0.024522
0.743795,5.92371,0.023753
0.74227,5.924768,0.022999
0.740752,5.924535,0.021916
0.73924,5.925543,0.019413
0.737735,5.926836,0.020271
0.736236,5.920582,0.016289
0.734744,5.919396,0.016561
