Energy (eV),e1,e2
5.867289,-0.842485,6.520132
5.82344,-0.783909,6.731577
5.780241,-0.666106,6.941752
5.737676,-0.557554,7.179386
5.695733,-0.40185,7.332901
5.654397,-0.191054,7.539903
5.613657,-0.013643,7.685028
5.573499,0.226935,7.784297
5.533911,0.442846,7.891449
5.49488,0.651861,7.962365
5.456395,0.860693,8.002471
5.418444,1.071832,8.026953
5.381018,1.273118,8.032748
5.344104,1.445459,8.028224
5.307692,1.610158,8.00673
5.271772,1.767782,7.988039
5.236335,1.913087,7.956778
5.201371,2.045348,7.901826
5.166869,2.183124,7.881084
5.132822,2.298165,7.835388
5.09922,2.392709,7.801157
5.066054,2.490131,7.766528
5.033317,2.558204,7.710041
5.000999,2.634995,7.659032
4.969093,2.704643,7.644745
4.937592,2.763662,7.616057
4.906486,2.800959,7.585465
4.87577,2.849517,7.550786
4.845435,2.919116,7.557528
4.815475,2.959773,7.534918
4.785883,3.001398,7.502691
4.756652,3.054393,7.492636
4.727775,3.097682,7.466642
4.699246,3.152251,7.488481
4.67106,3.179781,7.495623
4.643209,3.19817,7.50556
4.615688,3.245475,7.474446
4.588491,3.275835,7.484889
4.561612,3.277481,7.504263
4.535046,3.314591,7.527612
4.508787,3.325781,7.503884
4.48283,3.387703,7.575125
4.45717,3.408193,7.599538
4.431802,3.43547,7.611966
4.406721,3.462437,7.649357
4.381921,3.508177,7.70575
4.357399,3.55813,7.708584
4.33315,3.559835,7.747633
4.309169,3.645791,7.782396
4.285452,3.670458,7.827056
4.261994,3.740576,7.873175
4.238791,3.801763,7.962497
4.215839,3.833304,8.00606
4.193135,3.897755,8.091117
4.170673,3.969161,8.137245
4.148451,4.061183,8.19935
4.126463,4.158175,8.299519
4.104708,4.216766,8.368752
4.083181,4.330175,8.412815
4.061878,4.419877,8.47252
4.040796,4.562554,8.540371
4.019931,4.657946,8.582515
3.999282,4.824418,8.61137
3.978842,4.945283,8.636454
3.958611,5.080216,8.688054
3.938584,5.207231,8.663063
3.918759,5.353785,8.677791
3.899132,5.450721,8.727055
3.8797,5.582265,8.665907
3.860462,5.731359,8.671644
3.841413,5.804013,8.622347
3.822551,5.923406,8.666838
3.803873,6.011418,8.598624
3.785377,6.118474,8.513646
3.76706,6.188385,8.544645
3.748919,6.271571,8.49088
3.730952,6.34935,8.480334
3.713156,6.451146,8.491154
3.695529,6.546774,8.453341
3.678069,6.680525,8.439913
3.660773,6.705206,8.409206
3.643639,6.839634,8.444525
3.626665,6.895318,8.43416
3.609848,6.951,8.428881
3.593186,7.086775,8.3969
3.576677,7.130125,8.350929
3.560319,7.223454,8.418568
3.54411,7.368024,8.404672
3.528048,7.455785,8.356826
3.512131,7.597206,8.389811
3.496357,7.71382,8.350464
3.480724,7.813419,8.308757
3.46523,7.949846,8.313999
3.449874,8.075806,8.30666
3.434653,8.180471,8.283496
3.419566,8.299915,8.168946
3.404611,8.482347,8.10208
3.389786,8.629469,8.068236
3.375089,8.704123,7.940338
3.36052,8.825364,7.877012
3.346076,8.928903,7.795754
3.331756,9.061421,7.734726
3.317557,9.149751,7.659361
3.303479,9.245112,7.556963
3.289521,9.323782,7.400715
3.27568,9.396608,7.336957
3.261955,9.468124,7.225915
3.248344,9.54532,7.137121
3.234847,9.700356,7.020278
3.221461,9.725461,6.951382
3.208186,9.785128,6.820016
3.19502,9.850133,6.70234
3.181961,9.914659,6.640026
3.169009,9.964939,6.516604
3.156162,10.029997,6.470677
3.143419,10.112637,6.355441
3.130779,10.101542,6.256621
3.11824,10.140938,6.156954
3.1058,10.166414,6.049408
3.09346,10.23871,5.952417
3.081218,10.26351,5.853475
3.069072,10.276703,5.787109
3.057022,10.299971,5.671473
3.045066,10.336921,5.591184
3.033204,10.390288,5.501327
3.021433,10.417968,5.409031
3.009754,10.413635,5.330853
2.998165,10.459786,5.254124
2.986665,10.487041,5.147129
2.975252,10.467544,5.07452
2.963927,10.473651,4.990089
2.952688,10.534792,4.871875
2.941534,10.534802,4.777243
2.930464,10.575179,4.695531
2.919477,10.590192,4.638131
2.908572,10.574835,4.530345
2.897749,10.596399,4.424848
2.887006,10.648533,4.390749
2.876342,10.665321,4.264547
2.865757,10.661831,4.201554
2.85525,10.658275,4.136205
2.84482,10.677066,4.043962
2.834466,10.680277,3.939981
2.824187,10.675221,3.858169
2.813982,10.685018,3.777855
2.803851,10.696131,3.693597
2.793793,10.686114,3.615538
2.783807,10.692621,3.543631
2.773893,10.696591,3.462718
2.764048,10.708867,3.373565
2.754274,10.684001,3.270648
2.744569,10.660308,3.190252
2.734932,10.671351,3.114011
2.725362,10.613057,3.031884
2.71586,10.640804,2.930539
2.706423,10.598498,2.873672
2.697052,10.623137,2.801269
2.687747,10.591683,2.699167
2.678505,10.560153,2.640378
2.669326,10.528131,2.519753
2.660211,10.505606,2.476709
2.651158,10.457638,2.405602
2.642166,10.423168,2.330411
2.633235,10.377393,2.237199
2.624365,10.36041,2.170003
2.615554,10.293534,2.123226
2.606803,10.321541,2.06936
2.598109,10.221258,1.98195
2.589475,10.219235,1.914889
2.580897,10.128305,1.862509
2.572376,10.062829,1.818228
2.563911,10.000504,1.767283
2.555503,10.00639,1.715846
2.547149,9.95522,1.664563
2.53885,9.883449,1.614831
2.530605,9.810392,1.572747
2.522414,9.752816,1.563659
2.514275,9.709138,1.519423
2.506189,9.657399,1.473928
2.498156,9.62579,1.483668
2.490174,9.548913,1.460521
2.482242,9.519623,1.430906
2.474361,9.464749,1.42388
2.466531,9.411171,1.388454
2.45875,9.378158,1.360471
2.451018,9.335808,1.345217
2.443335,9.281345,1.339809
2.4357,9.260416,1.339107
2.428112,9.232861,1.325045
2.420573,9.177421,1.313708
2.41308,9.166752,1.301908
2.405633,9.106384,1.300522
2.398232,9.07067,1.284938
2.390877,9.056158,1.271128
2.383568,9.045408,1.25961
2.376302,9.004354,1.255594
2.369082,8.97294,1.256829
2.361905,8.924123,1.265946
2.354772,8.915696,1.24597
2.347682,8.892705,1.239434
2.340634,8.865127,1.232493
2.333629,8.843537,1.228891
2.326667,8.836876,1.227521
2.319746,8.792401,1.235726
2.312865,8.782073,1.214633
2.306026,8.791328,1.213337
2.299228,8.740993,1.20791
2.292469,8.715343,1.207996
2.285751,8.720421,1.196943
2.279072,8.685837,1.191959
2.272432,8.673513,1.18434
2.265831,8.634458,1.189138
2.259268,8.632806,1.17408
2.252743,8.620023,1.17666
2.246256,8.606704,1.171088
2.239807,8.589127,1.16053
2.233395,8.588222,1.155512
2.227019,8.574084,1.142173
2.22068,8.55114,1.142114
2.214378,8.550754,1.140007
2.208111,8.519282,1.130056
2.20188,8.510371,1.115976
2.195684,8.505273,1.115656
2.189523,8.504338,1.098005
2.183396,8.49247,1.100401
2.177305,8.454981,1.082041
2.171247,8.451372,1.073793
2.165223,8.427373,1.078338
2.159232,8.415181,1.062316
2.153275,8.390971,1.057935
2.147351,8.384254,1.056054
2.14146,8.381716,1.049619
2.135601,8.361278,1.039279
2.129774,8.338426,1.034149
2.123979,8.323009,1.027308
2.118216,8.300235,1.029785
2.112484,8.30097,1.019096
2.106784,8.293786,1.014497
2.101114,8.274145,1.015939
2.095475,8.265051,1.009365
2.089866,8.252055,1.015366
2.084288,8.249558,0.998834
2.078739,8.24051,0.999906
2.07322,8.217602,1.001639
2.067731,8.204609,0.993964
2.062271,8.189543,0.996822
2.056839,8.167619,0.995473
2.051437,8.175283,0.993569
2.046063,8.153714,0.995419
2.040717,8.137845,0.988155
2.0354,8.157164,0.989499
2.03011,8.138413,0.981709
2.024848,8.132674,0.985782
2.019613,8.112382,0.978033
2.014406,8.100838,0.977311
2.009225,8.088432,0.980382
2.004072,8.094949,0.976516
1.998945,8.093187,0.974493
1.993844,8.070383,0.977206
1.98877,8.064933,0.977334
1.983721,8.055043,0.975963
1.978698,8.050025,0.974038
1.973701,8.034244,0.970422
1.96873,8.046941,0.966747
1.963783,8.0356,0.965884
1.958862,8.022879,0.959009
1.953965,8.024981,0.966375
1.949093,8.017161,0.958343
1.944246,8.000377,0.958272
1.939422,8.001156,0.951057
1.934623,7.999888,0.952638
1.929848,7.99194,0.953419
1.925097,7.981231,0.953226
1.920369,7.98167,0.955431
1.915664,7.97683,0.950726
1.910983,7.960948,0.953653
1.906325,7.961765,0.950658
1.901689,7.960815,0.944826
1.897076,7.954491,0.942475
1.892486,7.948818,0.949643
1.887918,7.949582,0.941326
1.883373,7.946334,0.938855
1.87885,7.940747,0.939876
1.874348,7.918797,0.934845
1.869868,7.939134,0.936974
1.86541,7.93028,0.927799
1.860973,7.917836,0.929824
1.856558,7.914052,0.923955
1.852163,7.911994,0.92411
1.84779,7.919216,0.925409
1.843437,7.898386,0.924575
1.839105,7.8944,0.916596
1.834794,7.89283,0.922267
1.830503,7.891946,0.918718
1.826232,7.901973,0.915182
1.821982,7.896198,0.909799
1.817751,7.901219,0.920566
1.81354,7.885398,0.912623
1.809349,7.883849,0.907394
1.805178,7.88122,0.905504
1.801026,7.870971,0.907902
1.796893,7.885907,0.903861
1.792779,7.869926,0.905622
1.788684,7.866796,0.900531
1.784608,7.863906,0.898767
1.780551,7.864303,0.885235
1.776513,7.86294,0.893287
1.772493,7.866268,0.892584
1.768492,7.865014,0.888795
1.764508,7.851755,0.888041
1.760543,7.858404,0.885043
1.756596,7.855092,0.881711
1.752667,7.854972,0.883677
1.748755,7.848525,0.880103
1.744861,7.853727,0.872417
1.740985,7.839643,0.872496
1.737126,7.839803,0.877206
1.733284,7.840262,0.869674
1.72946,7.838738,0.870223
1.725653,7.834529,0.87216
1.721862,7.84414,0.864504
1.718089,7.83078,0.8653
1.714332,7.829203,0.868244
1.710592,7.826781,0.865163
1.706868,7.831964,0.856236
1.703161,7.833214,0.854667
1.699469,7.833138,0.85696
1.695795,7.821811,0.851786
1.692136,7.830022,0.849336
1.688493,7.833362,0.849505
1.684866,7.822659,0.841797
1.681255,7.82888,0.841118
1.67766,7.826624,0.842151
1.67408,7.830528,0.836397
1.670516,7.833133,0.83801
1.666966,7.840494,0.834716
1.663433,7.839576,0.828137
1.659914,7.831321,0.832364
1.656411,7.830552,0.826603
1.652922,7.815555,0.819552
1.649449,7.814167,0.824187
1.64599,7.826224,0.820846
1.642546,7.82455,0.821337
1.639116,7.827681,0.81999
1.635701,7.815182,0.814753
1.6323,7.804747,0.806984
1.628914,7.811671,0.804901
1.625542,7.801919,0.805499
1.622184,7.816504,0.80501
1.618841,7.812649,0.79897
1.615511,7.823893,0.792736
1.612195,7.821725,0.798012
1.608893,7.825765,0.792589
1.605604,7.826334,0.786239
1.60233,7.830625,0.790165
1.599069,7.825665,0.785448
1.595821,7.8205,0.785272
1.592587,7.823284,0.779714
1.589366,7.825955,0.775667
1.586158,7.827206,0.781622
1.582963,7.824942,0.772467
1.579782,7.827687,0.769101
1.576613,7.845458,0.765798
1.573457,7.839512,0.76212
1.570315,7.841119,0.75847
1.567184,7.846901,0.756148
1.564067,7.831654,0.754042
1.560962,7.84704,0.748192
1.55787,7.838872,0.746702
1.55479,7.840091,0.746614
1.551723,7.836011,0.741102
1.548668,7.835394,0.741366
1.545625,7.853343,0.742638
1.542594,7.855148,0.737203
1.539575,7.842532,0.726842
1.536569,7.842921,0.724867
1.533574,7.844895,0.720481
1.530591,7.865476,0.719963
1.52762,7.846036,0.713915
1.524661,7.861636,0.712302
1.521713,7.855068,0.711226
1.518777,7.858642,0.703913
1.515853,7.863329,0.693672
1.51294,7.878907,0.703913
1.510038,7.877573,0.695542
1.507148,7.872031,0.691212
1.504269,7.884649,0.685114
1.501401,7.88313,0.67505
1.498544,7.878536,0.678242
1.495698,7.888001,0.671657
1.492864,7.896846,0.671409
1.49004,7.893369,0.664409
1.487227,7.892886,0.662124
1.484425,7.900451,0.663749
1.481634,7.900622,0.660395
1.478853,7.913358,0.657995
1.476084,7.913003,0.650526
1.473324,7.906898,0.644171
1.470575,7.92032,0.644398
1.467837,7.922179,0.646219
1.465109,7.926336,0.639056
1.462391,7.953402,0.63199
1.459684,7.951873,0.632912
1.456987,7.965455,0.62943
1.4543,7.960648,0.621011
1.451623,7.963671,0.621931
1.448957,7.977306,0.612833
1.4463,7.986996,0.60597
1.443653,8.009639,0.591774
1.441016,8.024899,0.580319
1.438389,8.035535,0.572505
1.435772,8.057848,0.56336
1.433164,8.068948,0.548736
1.430566,8.085333,0.53936
1.427978,8.098094,0.519637
1.425399,8.116177,0.504661
1.42283,8.124176,0.481231
1.42027,8.137976,0.461751
1.41772,8.139883,0.441301
1.415179,8.164717,0.415151
1.412647,8.177233,0.385836
1.410125,8.184345,0.355156
1.407612,8.191321,0.326292
1.405108,8.197061,0.29439
1.402613,8.187563,0.258386
1.400127,8.189856,0.23139
1.39765,8.184627,0.204424
1.395182,8.171305,0.175341
1.392723,8.159262,0.143018
1.390273,8.148821,0.128173
1.387832,8.130487,0.107688
1.385399,8.10717,0.087068
1.382976,8.089124,0.068471
1.380561,8.069264,0.057588
1.378154,8.039272,0.041821
1.375756,8.017284,0.02698
1.373367,7.996193,0.01559
1.370986,7.974245,0.009013
1.368614,7.946219,0
1.36625,7.927308,0
1.363894,7.911312,0
1.361547,7.891917,0
1.359208,7.870337,0
1.356877,7.858869,0
1.354555,7.846978,0
1.35224,7.829405,0
1.349934,7.813462,0
1.347636,7.805163,0
1.345345,7.796761,0
1.343063,7.781882,0
1.340789,7.772049,0
1.338523,7.763765,0
1.336264,7.756733,0
1.334014,7.74366,0.002163
1.331771,7.733929,0.001378
1.329535,7.729099,0.003357
1.327308,7.720508,0.007927
1.325088,7.706967,0.009162
1.322876,7.69757,0.008309
1.320672,7.693242,0.009783
1.318475,7.678604,0.01342
1.316285,7.662938,0.010653
1.314103,7.655643,0.008963
1.311928,7.643457,0.008946
1.309761,7.629959,0.007514
1.307601,7.621605,0.004779
1.305449,7.615567,0.00506
1.303304,7.607097,0.00436
1.301166,7.595897,0.00371
1.299035,7.589382,0
1.296911,7.586336,0
1.294795,7.579496,0
1.292686,7.570524,0
1.290583,7.566686,0
1.288488,7.567056,0
1.2864,7.559617,0
1.284319,7.551937,0
1.282244,7.548647,0
1.280177,7.549879,0
1.278116,7.54425,0.001835
1.276062,7.538586,0.00281
1.274016,7.534891,0.002603
1.271975,7.536583,0.004611
1.269942,7.5318,0.008733
1.267915,7.526745,0.011692
1.265895,7.523553,0.012924
1.263882,7.52266,0.014096
1.261875,7.521831,0.021487
1.259875,7.51306,0.024
1.257881,7.50798,0.025917
1.255894,7.505428,0.027521
1.253913,7.502501,0.033526
1.251939,7.491634,0.035545
1.249971,7.484801,0.034192
1.248009,7.48139,0.030897
1.246054,7.478577,0.032633
1.244105,7.472619,0.033478
1.242163,7.464369,0.033814
1.240227,7.459192,0.032094
1.223788,7.425807,0
1.219735,7.418249,0
1.215708,7.404638,0
1.211706,7.397854,0
1.207729,7.385284,0
1.203776,7.380497,0
1.199848,7.369982,0
1.195944,7.366637,0
1.192064,7.356352,0
1.188208,7.354306,0
1.184376,7.346329,0
1.180567,7.34489,0
1.176781,7.337934,0
1.173018,7.336847,0
1.169278,7.329432,0
1.165561,7.328403,0
1.161866,7.321266,0
1.158193,7.319159,0
1.154542,7.311094,0
1.150914,7.308057,0
1.147306,7.298441,0
1.143721,7.295287,0
1.140156,7.284312,0
1.136613,7.280671,0
1.13309,7.269984,0
1.129589,7.266362,0
1.126108,7.256086,0
1.122647,7.252953,0
1.119207,7.243415,0
1.115787,7.240654,0
1.112386,7.232308,0
1.109006,7.229926,0
1.105645,7.222668,0
1.102303,7.221039,0
1.098981,7.2144,0
1.095678,7.213569,0
1.092394,7.20718,0
1.089128,7.206664,0
1.085881,7.201618,0
1.082653,7.201139,0
1.079443,7.196125,0
1.076252,7.1962,0
1.073078,7.190441,0
1.069922,7.189649,0
1.066784,7.183996,0
1.063664,7.182939,0
1.060561,7.176848,0
1.057476,7.175897,0
1.054408,7.168533,0
1.051357,7.167072,0
1.048322,7.159113,0
1.045305,7.157855,0
1.042304,7.150237,0
1.03932,7.148718,0
1.036353,7.141539,0
1.033401,7.13948,0
1.030466,7.132096,0
1.027547,7.130524,0
1.024644,7.123434,0
1.021756,7.121664,0
1.018885,7.115146,0
1.016029,7.114368,0
1.013188,7.108116,0
1.010363,7.107276,0
1.007552,7.101209,0
1.004757,7.101891,0
1.001977,7.096176,0
0.999212,7.095748,0
0.996462,7.090793,0
0.993726,7.090923,0
0.991005,7.086373,0
0.988298,7.087134,0
0.985605,7.083891,0
0.982927,7.085395,0
0.980263,7.082692,0
0.977613,7.083588,0
0.974977,7.078622,0
0.972354,7.078557,0
0.969746,7.073619,0
0.967151,7.07466,0
0.964569,7.069222,0
0.962001,7.068158,0
0.959446,7.061144,0
0.956904,7.059065,0
0.954376,7.05366,0
0.95186,7.052939,0
0.949358,7.047447,0
0.946868,7.047542,0
0.944391,7.041635,0
0.941927,7.041601,0
0.939475,7.036733,0
0.937036,7.036356,0
0.934609,7.030768,0
0.932194,7.029799,0
0.929792,7.024133,0
0.927402,7.023362,0
0.925023,7.017495,0
0.922657,7.016643,0
0.920303,7.010808,0
0.91796,7.010836,0
0.915629,7.005479,0
0.91331,7.005332,0
0.911002,6.999831,0
0.908706,7.000088,0
0.906421,6.996029,0
0.904148,6.996184,0
0.901886,6.99289,0
0.899634,6.993989,0
0.897394,6.988719,0
0.895165,6.98912,0
0.892947,6.984668,0
0.89074,6.986848,0
0.888543,6.986591,0.001059
0.886358,6.99172,0.002828
0.884183,6.992621,0.005016
0.882018,6.997252,0.007117
0.879864,6.993988,0.010527
0.87772,6.989334,0.009843
0.875587,6.979681,0.000329
0.873464,6.980514,0
0.871351,6.976988,0
0.869248,6.972958,0
0.867156,6.96003,0
0.865073,6.954122,0
0.863001,6.949423,0
0.860938,6.952438,0.003701
0.858885,6.954105,0.011809
0.856842,6.958316,0.016354
0.854808,6.959682,0.020875
0.852785,6.96395,0.023753
0.85077,6.964512,0.027145
0.848765,6.968388,0.028688
0.84677,6.967107,0.030843
0.844784,6.970859,0.032831
0.842808,6.969316,0.034154
0.84084,6.972039,0.035219
0.838882,6.970476,0.036673
0.836933,6.972279,0.037084
0.834993,6.97064,0.038244
0.833062,6.972911,0.039095
0.83114,6.971479,0.038819
0.829227,6.973326,0.038857
0.827323,6.971731,0.038388
0.825427,6.972889,0.037937
0.823541,6.971212,0.036524
0.821663,6.973473,0.035713
0.819793,6.971115,0.033798
0.817932,6.972994,0.031924
0.81608,6.971147,0.029845
0.814236,6.972547,0.027388
0.812401,6.970247,0.023533
0.810574,6.971877,0.021823
0.808755,6.970089,0.018139
0.806945,6.971328,0.014128
0.805142,6.969484,0.008945
0.803348,6.97046,0.005106
0.801562,6.968524,0
0.799784,6.969297,0
0.798014,6.965532,0
0.796252,6.965055,0
0.794498,6.954887,0
0.792752,6.942225,0
0.791013,6.916384,0
0.789283,6.910245,0
0.78756,6.908659,0
0.785845,6.913463,0
0.784137,6.917273,0
0.782437,6.922515,0.000518
0.780744,6.919012,0.003387
0.779059,6.911228,0.00337
0.777382,6.90645,0
0.775711,6.910622,0
0.774049,6.913356,0
0.772393,6.918572,0
0.770745,6.918416,0
0.769104,6.917815,0
0.76747,6.907628,0
0.765843,6.899929,0
0.764223,6.890566,0
0.762611,6.888725,0
0.761005,6.882143,0
0.759406,6.884197,0
0.757815,6.879606,0
0.75623,6.88176,0
0.754652,6.879268,0
0.753081,6.880452,0
0.751516,6.878296,0
0.749959,6.878725,0
0.748408,6.876328,0.000002
0.746863,6.877508,0.000887
0.745326,6.875077,0.003511
0.743795,6.875698,0.00478
0.74227,6.874121,0.007292
0.740752,6.87532,0.008341
0.73924,6.873955,0.011163
0.737735,6.875489,0.011985
0.736236,6.874147,0.014691
0.734744,6.875625,0.016865
