Energy (eV),e1,e2
5.867289,-1.891812,5.35884
5.82344,-1.999825,5.521785
5.780241,-2.126505,5.704811
5.737676,-2.215771,5.910767
5.695733,-2.308473,6.123212
5.654397,-2.374084,6.373466
5.613657,-2.463052,6.606287
5.573499,-2.556124,6.866598
5.533911,-2.619176,7.143664
5.49488,-2.662649,7.494483
5.456395,-2.657378,7.888081
5.418444,-2.605982,8.317411
5.381018,-2.474823,8.735888
5.344104,-2.296314,9.140128
5.307692,-2.031874,9.575939
5.271772,-1.714579,9.914491
5.236335,-1.370923,10.239692
5.201371,-0.995533,10.506609
5.166869,-0.580073,10.724516
5.132822,-0.138823,10.876449
5.09922,0.296517,11.025971
5.066054,0.74822,11.073559
5.033317,1.199789,11.057579
5.000999,1.604334,10.979438
4.969093,1.989782,10.861196
4.937592,2.299848,10.656888
4.906486,2.594148,10.477319
4.87577,2.825965,10.324697
4.845435,3.003602,10.13556
4.815475,3.144324,9.93489
4.785883,3.292651,9.743128
4.756652,3.407219,9.609991
4.727775,3.487906,9.463979
4.699246,3.537279,9.305703
4.67106,3.601475,9.223095
4.643209,3.670537,9.076592
4.615688,3.639439,8.982062
4.588491,3.697271,8.864561
4.561612,3.699501,8.828748
4.535046,3.706251,8.738161
4.508787,3.731851,8.654949
4.48283,3.726427,8.61833
4.45717,3.754683,8.566641
4.431802,3.721721,8.556162
4.406721,3.68841,8.529795
4.381921,3.728766,8.506132
4.357399,3.702464,8.455555
4.33315,3.702811,8.464973
4.309169,3.703664,8.461873
4.285452,3.688937,8.424262
4.261994,3.700227,8.47532
4.238791,3.674963,8.481978
4.215839,3.678165,8.500605
4.193135,3.674971,8.550265
4.170673,3.634439,8.542112
4.148451,3.637622,8.6441
4.126463,3.57259,8.68233
4.104708,3.539735,8.764914
4.083181,3.557757,8.820809
4.061878,3.479603,8.932212
4.040796,3.421648,9.081111
4.019931,3.367258,9.281116
3.999282,3.413844,9.476669
3.978842,3.410148,9.800095
3.958611,3.53926,10.047969
3.938584,3.755866,10.329165
3.918759,3.962457,10.518939
3.899132,4.266055,10.69909
3.8797,4.602891,10.736378
3.860462,4.866518,10.75136
3.841413,5.116948,10.75608
3.822551,5.398551,10.680178
3.803873,5.61899,10.668728
3.785377,5.787415,10.580957
3.76706,5.957909,10.493075
3.748919,6.129373,10.448643
3.730952,6.212073,10.331455
3.713156,6.346654,10.208205
3.695529,6.450779,10.163433
3.678069,6.494631,10.024196
3.660773,6.599871,9.976542
3.643639,6.693296,9.876412
3.626665,6.753886,9.84358
3.609848,6.800354,9.76611
3.593186,6.833012,9.688164
3.576677,6.85533,9.664165
3.560319,6.914211,9.585478
3.54411,6.885206,9.499958
3.528048,6.885053,9.536693
3.512131,6.863515,9.501257
3.496357,6.832516,9.474582
3.480724,6.807274,9.488689
3.46523,6.762444,9.573444
3.449874,6.596674,9.613799
3.434653,6.510687,9.727588
3.419566,6.416723,9.902921
3.404611,6.426288,10.202204
3.389786,6.398035,10.551472
3.375089,6.518871,10.992002
3.36052,6.854177,11.38197
3.346076,7.258043,11.704569
3.331756,7.733525,11.875826
3.317557,8.187797,12.010442
3.303479,8.649244,12.030637
3.289521,9.107283,11.966699
3.27568,9.559142,11.784169
3.261955,9.908905,11.662734
3.248344,10.203817,11.391373
3.234847,10.525927,11.159903
3.221461,10.705741,10.939736
3.208186,11.012421,10.75499
3.19502,11.196979,10.577147
3.181961,11.408604,10.368299
3.169009,11.554935,10.089708
3.156162,11.682683,9.898135
3.143419,11.807477,9.68954
3.130779,11.909707,9.459922
3.11824,11.995112,9.278453
3.1058,12.105317,9.128633
3.09346,12.176122,8.934587
3.081218,12.221237,8.715528
3.069072,12.314835,8.580582
3.057022,12.359633,8.412308
3.045066,12.466534,8.253091
3.033204,12.46248,8.029488
3.021433,12.538372,7.918396
3.009754,12.551397,7.754064
2.998165,12.602233,7.610663
2.986665,12.604857,7.415207
2.975252,12.695346,7.33223
2.963927,12.683331,7.117178
2.952688,12.710854,7.010972
2.941534,12.713685,6.918876
2.930464,12.776118,6.765871
2.919477,12.780895,6.587679
2.908572,12.788029,6.435014
2.897749,12.788473,6.304408
2.887006,12.844937,6.163765
2.876342,12.846161,6.045995
2.865757,12.893732,5.94142
2.85525,12.829294,5.78772
2.84482,12.882743,5.683424
2.834466,12.865201,5.601932
2.824187,12.915994,5.469494
2.813982,12.83462,5.301635
2.803851,12.846782,5.188001
2.793793,12.862854,5.080435
2.783807,12.838445,4.981781
2.773893,12.849335,4.829252
2.764048,12.873631,4.7488
2.754274,12.802476,4.632712
2.744569,12.841372,4.525585
2.734932,12.833412,4.40122
2.725362,12.810491,4.270901
2.71586,12.770827,4.181824
2.706423,12.729689,4.066286
2.697052,12.738107,4.002217
2.687747,12.680338,3.88241
2.678505,12.680006,3.751968
2.669326,12.686288,3.64234
2.660211,12.621228,3.559125
2.651158,12.596581,3.469688
2.642166,12.579994,3.341591
2.633235,12.54049,3.273924
2.624365,12.489946,3.185106
2.615554,12.45141,3.108304
2.606803,12.395884,3.003942
2.598109,12.337321,2.901275
2.589475,12.343994,2.837185
2.580897,12.276502,2.74313
2.572376,12.244404,2.673213
2.563911,12.182631,2.577702
2.555503,12.110929,2.508397
2.547149,12.067988,2.457112
2.53885,12.047003,2.392763
2.530605,12.003465,2.330336
2.522414,11.96225,2.267253
2.514275,11.885961,2.154714
2.506189,11.870001,2.089791
2.498156,11.812518,2.046967
2.490174,11.769619,1.97725
2.482242,11.707581,1.924516
2.474361,11.66333,1.868567
2.466531,11.633644,1.837685
2.45875,11.551371,1.788037
2.451018,11.477907,1.714791
2.443335,11.452103,1.658032
2.4357,11.395606,1.56845
2.428112,11.334963,1.553444
2.420573,11.23496,1.553753
2.41308,11.198255,1.48109
2.405633,11.152127,1.415843
2.398232,11.064348,1.391116
2.390877,11.010776,1.380428
2.383568,10.959378,1.355255
2.376302,10.875462,1.345475
2.369082,10.830093,1.316181
2.361905,10.782411,1.299065
2.354772,10.729185,1.272378
2.347682,10.664147,1.243064
2.340634,10.624566,1.238263
2.333629,10.589494,1.213132
2.326667,10.541715,1.207626
2.319746,10.487559,1.20289
2.312865,10.440939,1.187997
2.306026,10.399867,1.169599
2.299228,10.381181,1.15507
2.292469,10.346635,1.143952
2.285751,10.312606,1.135734
2.279072,10.260306,1.144499
2.272432,10.219615,1.11633
2.265831,10.188926,1.125529
2.259268,10.130492,1.107552
2.252743,10.107501,1.123042
2.246256,10.088633,1.110453
2.239807,10.038073,1.11838
2.233395,10.020353,1.112301
2.227019,9.969145,1.103299
2.22068,9.971629,1.10006
2.214378,9.929576,1.076373
2.208111,9.909917,1.085345
2.20188,9.892456,1.084488
2.195684,9.867329,1.076456
2.189523,9.835808,1.064907
2.183396,9.805966,1.062123
2.177305,9.778163,1.061316
2.171247,9.759201,1.061774
2.165223,9.741514,1.069829
2.159232,9.692966,1.064915
2.153275,9.679627,1.056984
2.147351,9.660759,1.064003
2.14146,9.658407,1.045619
2.135601,9.625865,1.051249
2.129774,9.610383,1.046868
2.123979,9.594625,1.043613
2.118216,9.588619,1.030337
2.112484,9.563056,1.026523
2.106784,9.553307,1.022463
2.101114,9.540359,1.024173
2.095475,9.526475,1.017648
2.089866,9.491645,1.014311
2.084288,9.456553,1.007088
2.078739,9.460883,1.008537
2.07322,9.457861,1.008579
2.067731,9.443911,0.998984
2.062271,9.417732,1.002095
2.056839,9.405387,1.008098
2.051437,9.389298,0.999417
2.046063,9.396209,0.98381
2.040717,9.380682,0.98223
2.0354,9.356076,0.977609
2.03011,9.339602,0.983741
2.024848,9.320493,0.991996
2.019613,9.325283,0.974638
2.014406,9.296202,0.97273
2.009225,9.300004,0.963581
2.004072,9.273771,0.964943
1.998945,9.258798,0.963318
1.993844,9.252987,0.969096
1.98877,9.244328,0.95607
1.983721,9.239777,0.944323
1.978698,9.24087,0.938092
1.973701,9.225001,0.940287
1.96873,9.218691,0.934252
1.963783,9.20803,0.930535
1.958862,9.197991,0.944785
1.953965,9.182611,0.936421
1.949093,9.169583,0.938404
1.944246,9.166812,0.936379
1.939422,9.165875,0.932822
1.934623,9.144631,0.933017
1.929848,9.140706,0.932511
1.925097,9.129037,0.929822
1.920369,9.115903,0.933948
1.915664,9.097226,0.922658
1.910983,9.08696,0.931642
1.906325,9.091914,0.92374
1.901689,9.087722,0.914864
1.897076,9.077052,0.912931
1.892486,9.044946,0.931088
1.887918,9.051744,0.924191
1.883373,9.075874,0.900609
1.87885,9.048374,0.898484
1.874348,9.038149,0.899605
1.869868,9.03339,0.904979
1.86541,9.037818,0.89454
1.860973,9.023313,0.892451
1.856558,9.027711,0.883839
1.852163,9.017654,0.886306
1.84779,9.008616,0.885577
1.843437,8.993503,0.868435
1.839105,8.996407,0.863894
1.834794,8.997268,0.863591
1.830503,8.985804,0.864367
1.826232,8.974386,0.861961
1.821982,8.988736,0.858771
1.817751,8.97016,0.846832
1.81354,8.961843,0.852316
1.809349,8.956946,0.85401
1.805178,8.964595,0.843916
1.801026,8.963688,0.836214
1.796893,8.924098,0.850407
1.792779,8.930386,0.848999
1.788684,8.938676,0.836865
1.784608,8.937189,0.834433
1.780551,8.922485,0.836258
1.776513,8.920913,0.838901
1.772493,8.927316,0.818079
1.768492,8.928994,0.816225
1.764508,8.912121,0.811835
1.760543,8.922947,0.811404
1.756596,8.919494,0.808003
1.752667,8.907792,0.804225
1.748755,8.926598,0.78153
1.744861,8.912923,0.7851
1.740985,8.896617,0.79171
1.737126,8.907014,0.778208
1.733284,8.892643,0.779501
1.72946,8.88801,0.781908
1.725653,8.90159,0.785456
1.721862,8.882793,0.775962
1.718089,8.878405,0.777637
1.714332,8.866912,0.778018
1.710592,8.872617,0.756309
1.706868,8.870326,0.758263
1.703161,8.873171,0.765839
1.699469,8.886175,0.76779
1.695795,8.866078,0.759339
1.692136,8.869019,0.749757
1.688493,8.87878,0.73977
1.684866,8.86905,0.740616
1.681255,8.875491,0.729203
1.67766,8.876569,0.732737
1.67408,8.862608,0.72839
1.670516,8.883079,0.732864
1.666966,8.880071,0.718313
1.663433,8.872636,0.715931
1.659914,8.862236,0.706868
1.656411,8.847197,0.69917
1.652922,8.855631,0.693765
1.649449,8.859812,0.694328
1.64599,8.860238,0.691422
1.642546,8.864869,0.691785
1.639116,8.883372,0.694199
1.635701,8.865702,0.684912
1.6323,8.859547,0.673345
1.628914,8.881494,0.661527
1.625542,8.865459,0.674302
1.622184,8.87481,0.674334
1.618841,8.870761,0.656488
1.615511,8.865919,0.661424
1.612195,8.888345,0.655028
1.608893,8.879766,0.657128
1.605604,8.889968,0.646069
1.60233,8.87655,0.643818
1.599069,8.891047,0.634077
1.595821,8.889073,0.630955
1.592587,8.896885,0.632075
1.589366,8.88357,0.630921
1.586158,8.898814,0.628834
1.582963,8.904224,0.630997
1.579782,8.906731,0.639178
1.576613,8.911435,0.623143
1.573457,8.936072,0.624101
1.570315,8.917715,0.614146
1.567184,8.945249,0.611212
1.564067,8.933482,0.592644
1.560962,8.942348,0.591484
1.55787,8.953052,0.598201
1.55479,8.965067,0.578094
1.551723,8.964334,0.571285
1.548668,8.989144,0.582609
1.545625,8.99401,0.585664
1.542594,9.015239,0.573812
1.539575,9.039011,0.556975
1.536569,9.049495,0.544473
1.533574,9.054093,0.530631
1.530591,9.107378,0.51056
1.52762,9.121444,0.495629
1.524661,9.159406,0.464558
1.521713,9.184772,0.448142
1.518777,9.206591,0.412079
1.515853,9.225254,0.36814
1.51294,9.220729,0.340923
1.510038,9.245942,0.328295
1.507148,9.282177,0.29696
1.504269,9.305907,0.229621
1.501401,9.293012,0.166207
1.498544,9.273859,0.122711
1.495698,9.246815,0.097595
1.492864,9.211086,0.084664
1.49004,9.16492,0.074097
1.487227,9.120369,0.068416
1.484425,9.064936,0.057765
1.481634,9.019404,0.036114
1.478853,8.989054,0.021388
1.476084,8.961699,0.01087
1.473324,8.937074,0.003887
1.470575,8.919412,0.00112
1.467837,8.904016,0.004082
1.465109,8.883692,0.010212
1.462391,8.864363,0.012099
1.459684,8.850498,0.016662
1.456987,8.825068,0.021857
1.4543,8.799149,0.020224
1.451623,8.778868,0.018213
1.448957,8.756467,0.015626
1.4463,8.732924,0.007378
1.443653,8.718326,0.001654
1.441016,8.708062,0
1.438389,8.695224,0
1.435772,8.687653,0
1.433164,8.68096,0
1.430566,8.672685,0.000011
1.427978,8.663162,0.003033
1.425399,8.65798,0.006987
1.42283,8.648739,0.011655
1.42027,8.635579,0.015981
1.41772,8.625898,0.016308
1.415179,8.613385,0.019804
1.412647,8.593081,0.020931
1.410125,8.575408,0.016163
1.407612,8.565073,0.013926
1.405108,8.551044,0.011476
1.402613,8.537158,0.006117
1.400127,8.531013,0.001311
1.39765,8.525865,0
1.395182,8.51791,0
1.392723,8.51323,0
1.390273,8.512856,0
1.387832,8.507977,0.000014
1.385399,8.502028,0.002654
1.382976,8.499913,0.004839
1.380561,8.496858,0.00898
1.378154,8.48735,0.013136
1.375756,8.48152,0.013823
1.373367,8.477262,0.017103
1.370986,8.466014,0.020943
1.368614,8.449359,0.020914
1.36625,8.441179,0.019668
1.363894,8.4312,0.020595
1.361547,8.415623,0.019073
1.359208,8.403729,0.013573
1.356877,8.399993,0.009249
1.354555,8.394804,0.007054
1.35224,8.386078,0.003736
1.349934,8.38088,0.000754
1.347636,8.382735,0
1.345345,8.380677,0.000166
1.343063,8.376385,0.000953
1.340789,8.373692,0.001141
1.338523,8.375278,0.004188
1.336264,8.373116,0.008564
1.334014,8.367119,0.011771
1.331771,8.364235,0.01211
1.329535,8.364629,0.016705
1.327308,8.357626,0.023311
1.325088,8.348194,0.023281
1.322876,8.34282,0.024324
1.320672,8.339415,0.029418
1.318475,8.322074,0.033315
1.316285,8.307482,0.030921
1.314103,8.301167,0.02766
1.311928,8.290681,0.025102
1.309761,8.279282,0.021382
1.307601,8.275435,0.015826
1.305449,8.273855,0.013822
1.303304,8.268914,0.0123
1.301166,8.262786,0.007821
1.299035,8.263974,0.004221
1.296911,8.265532,0.005422
1.294795,8.262563,0.006939
1.292686,8.258872,0.006889
1.290583,8.261746,0.007192
1.288488,8.264076,0.011394
1.2864,8.259767,0.01739
1.284319,8.254076,0.019881
1.282244,8.251706,0.019718
1.280177,8.252509,0.023339
1.278116,8.244385,0.028699
1.276062,8.233583,0.02922
1.274016,8.228292,0.027473
1.271975,8.2284,0.028264
1.269942,8.218441,0.032718
1.267915,8.206849,0.03127
1.265895,8.200839,0.027792
1.263882,8.199107,0.028683
1.261875,8.190712,0.028515
1.259875,8.181289,0.023754
1.257881,8.178742,0.022339
1.255894,8.1784,0.021544
1.253913,8.175349,0.019476
1.251939,8.170318,0.016251
1.249971,8.168423,0.013463
1.248009,8.169171,0.012582
1.246054,8.172894,0.01176
1.244105,8.172256,0.013213
1.242163,8.171,0.014112
1.240227,8.169365,0.015892
1.223788,8.153986,0
1.219735,8.147901,0
1.215708,8.133613,0
1.211706,8.124684,0
1.207729,8.107776,0.000046
1.203776,8.10028,0
1.199848,8.088337,0
1.195944,8.085736,0
1.192064,8.078829,0
1.188208,8.079277,0
1.184376,8.07515,0
1.180567,8.076406,0
1.176781,8.07082,0
1.173018,8.069279,0
1.169278,8.06022,0
1.165561,8.057033,0
1.161866,8.045558,0
1.158193,8.039128,0
1.154542,8.02598,0
1.150914,8.019327,0
1.147306,8.00856,0
1.143721,8.00531,0
1.140156,7.998077,0
1.136613,7.998112,0
1.13309,7.993562,0
1.129589,7.994987,0
1.126108,7.990572,0
1.122647,7.990905,0
1.119207,7.983708,0
1.115787,7.982391,0
1.112386,7.975162,0
1.109006,7.972215,0
1.105645,7.962772,0
1.102303,7.958464,0
1.098981,7.947593,0
1.095678,7.943031,0
1.092394,7.932898,0
1.089128,7.930426,0
1.085881,7.923378,0
1.082653,7.922804,0
1.079443,7.918614,0
1.076252,7.919863,0
1.073078,7.916139,0
1.069922,7.917399,0
1.066784,7.912243,0
1.063664,7.910533,0
1.060561,7.904158,0
1.057476,7.904119,0
1.054408,7.897924,0
1.051357,7.89618,0
1.048322,7.88779,0
1.045305,7.885367,0
1.042304,7.876193,0
1.03932,7.872886,0
1.036353,7.864287,0
1.033401,7.86173,0
1.030466,7.854962,0
1.027547,7.854492,0
1.024644,7.849964,0
1.021756,7.850926,0
1.018885,7.847286,0
1.016029,7.849535,0
1.013188,7.846158,0
1.010363,7.846807,0
1.007552,7.840176,0
1.004757,7.839344,0
1.001977,7.835159,0
0.999212,7.835101,0
0.996462,7.829457,0
0.993726,7.828231,0
0.991005,7.821589,0
0.988298,7.820172,0
0.985605,7.812595,0
0.982927,7.809966,0
0.980263,7.802465,0
0.977613,7.800189,0
0.974977,7.793323,0
0.972354,7.793226,0
0.969746,7.787733,0
0.967151,7.788541,0
0.964569,7.784125,0
0.962001,7.785708,0
0.959446,7.782498,0
0.956904,7.78428,0
0.954376,7.783032,0
0.95186,7.784325,0
0.949358,7.775279,0
0.946868,7.775002,0
0.944391,7.772894,0
0.941927,7.772333,0
0.939475,7.766406,0
0.937036,7.766157,0
0.934609,7.761319,0
0.932194,7.761056,0
0.929792,7.755065,0
0.927402,7.753341,0
0.925023,7.746306,0
0.922657,7.744167,0
0.920303,7.73716,0
0.91796,7.736351,0
0.915629,7.730042,0
0.91331,7.729915,0
0.911002,7.724497,0
0.908706,7.725916,0
0.906421,7.722328,0
0.904148,7.723791,0
0.901886,7.721559,0
0.899634,7.724597,0
0.897394,7.724769,0
0.895165,7.730233,0
0.892947,7.722713,0.010558
0.89074,7.712908,0.002643
0.888543,7.710067,0
0.886358,7.711903,0
0.884183,7.703729,0
0.882018,7.705248,0
0.879864,7.702869,0
0.87772,7.705884,0
0.875587,7.702884,0.004485
0.873464,7.704638,0.007878
0.871351,7.700887,0.011626
0.869248,7.699809,0.013483
0.867156,7.694698,0.015761
0.865073,7.693514,0.01709
0.863001,7.688146,0.018094
0.860938,7.686653,0.017804
0.858885,7.681686,0.017751
0.856842,7.68134,0.016844
0.854808,7.676953,0.014997
0.852785,7.678145,0.013597
0.85077,7.674747,0.011146
0.848765,7.677163,0.008906
0.84677,7.675343,0.005842
0.844784,7.679895,0.00327
0.842808,7.679715,0
0.84084,7.684432,0
0.838882,7.685742,0
0.836933,7.694268,0.003985
0.834993,7.694407,0.024358
0.833062,7.660734,0.03221
0.83114,7.654901,0.002382
0.829227,7.663934,0
0.827323,7.667218,0
0.825427,7.673208,0
0.823541,7.677235,0.002443
0.821663,7.683016,0.003865
0.819793,7.683686,0.00544
0.817932,7.687269,0.005822
0.81608,7.686892,0.006631
0.814236,7.689075,0.006947
0.812401,7.686453,0.007689
0.810574,7.687836,0.007506
0.808755,7.685326,0.00798
0.806945,7.684836,0.007417
0.805142,7.680303,0.006892
0.803348,7.679636,0.005712
0.801562,7.675309,0.004525
0.799784,7.673868,0.002783
0.798014,7.66835,0
0.796252,7.66755,0
0.794498,7.661911,0
0.792752,7.66152,0
0.791013,7.65683,0
0.789283,7.656254,0
0.78756,7.651881,0
0.785845,7.650306,0
0.784137,7.638239,0
0.782437,7.607109,0
0.780744,7.603831,0
0.779059,7.615072,0
0.777382,7.625294,0
0.775711,7.633868,0.006638
0.774049,7.605569,0.001872
0.772393,7.614847,0
0.770745,7.622998,0
0.769104,7.629047,0
0.76747,7.620716,0
0.765843,7.61116,0
0.764223,7.603943,0
0.762611,7.604249,0
0.761005,7.600325,0
0.759406,7.60276,0
0.757815,7.599374,0
0.75623,7.601035,0
0.754652,7.598084,0
0.753081,7.598329,0
0.751516,7.595584,0
0.749959,7.595586,0
0.748408,7.591664,0
0.746863,7.591891,0
0.745326,7.588489,0
0.743795,7.587688,0
0.74227,7.584586,0
0.740752,7.584331,0
0.73924,7.580856,0
0.737735,7.581108,0
0.736236,7.577456,0.000096
0.734744,7.577829,0.00073
